% rad[m]  chord [m] twist[deg] dr[m]    thick[%] 
5.0370    2.3761    8.4743    0.1575   35.9234
5.3502    2.4905    8.3699    0.4687   34.6268
5.9687    2.7165    8.1637    0.7684   32.2460
6.8775    3.0485    7.8608    1.0491   29.2983
8.0541    3.0414    7.4686    1.3040   26.3421
9.4695    2.9933    6.9968    1.5268   24.0880
11.0889    2.8371    6.4570    1.7120   22.4230
12.8725    2.6588    5.8625    1.8551   20.7647
14.7762    2.4684    5.2279    1.9524   19.2072
16.7533    2.2706    4.5689    2.0017   17.8210
18.7550    2.0705    3.9017    2.0017   16.6541
20.7321    1.8728    3.2427    1.9524   15.7441
22.6358    1.6824    2.6081    1.8551   15.0355
24.4193    1.5040    2.0136    1.7120   14.3946
26.0388    1.3421    1.4738    1.5268   13.8116
27.4542    1.2006    1.0020    1.3040   13.3021
28.6308    1.0829    0.6098    1.0491   12.8785
29.5395    0.9920    0.3068    0.7684   12.5514
30.1581    0.9302    0.1006    0.4687   12.3287
30.4712    0.9000         0    0.1575   12.2200